# Simulated TGA data with 2 partial components.
# Format: component [A, E, n, c, ...(extra_params)... ] 
# comp. 1 [8.9226, 210492.4334, 0.9339, 0.745]
# comp. 2 [5.7476, 129419.1625, 1.2968, 0.2427]
#--------------------------------------------------------------
# time (min)   Temp (K)    mass (mg) 
81.12  400.2762  1.4124376349845174
81.16  400.819  1.4124369223973996
81.2  401.3697  1.412436196402805
81.24  401.9279  1.4124354565702266
81.28  402.4928  1.4124347024654709
81.32  403.0641  1.4124339336613656
81.36  403.641  1.412433149725393
81.4  404.2229  1.4124323502334066
81.44  404.8093  1.41243153476522
81.48  405.3995  1.4124307029025929
81.52  405.9929  1.4124298542356395
81.56  406.5889  1.4124289883610404
81.6  407.1868  1.4124281048830347
81.64  407.786  1.4124272034175134
81.68  408.3859  1.4124262835902686
81.72  408.9858  1.412425345038176
81.76  409.5851  1.4124243874136497
81.8  410.1831  1.4124234103829088
81.84  410.7793  1.4124224136306693
81.88  411.3729  1.4124213968550243
81.92  411.9633  1.4124203597790215
81.96  412.55  1.4124193021456495
82.0  413.1323  1.4124182237158254
82.04  413.7096  1.4124171242770271
82.08  414.2812  1.4124160036414803
82.12  414.8466  1.412414861651598
82.16  415.4053  1.412413698174263
82.2  415.9566  1.4124125131022822
82.24  416.4999  1.412411306363776
82.28  417.0348  1.4124100779201356
82.32  417.5606  1.4124088277595601
82.36  418.077  1.412407555910727
82.4  418.5832  1.4124062624278544
82.44  419.079  1.4124049474130345
82.48  419.5637  1.41240361099228
82.52  420.037  1.4124022533381715
82.56  420.4984  1.4124008746537542
82.6  420.9475  1.4123994751823594
82.64  421.3838  1.4123980552041921
82.68  421.8071  1.412396615041866
82.72  422.2169  1.4123951550472984
82.76  422.6129  1.4123936756163027
82.8  422.9949  1.4123921771798178
82.84  423.3624  1.412390660199375
82.88  423.7153  1.4123891251819733
82.92  424.0533  1.4123875726607396
82.96  424.3761  1.412386003204705
83.0  424.6836  1.4123844174188354
83.04  424.9757  1.4123828159337033
83.08  425.2521  1.4123811994049797
83.12  425.5127  1.4123795685233
83.16  425.7575  1.4123779240034418
83.2  425.9864  1.4123762665783222
83.24  426.1993  1.4123745970034174
83.28  426.3961  1.412372916055954
83.32  426.577  1.4123712245340396
83.36  426.742  1.4123695232394744
83.4  426.891  1.4123678129873605
83.44  427.0242  1.4123660946104932
83.48  427.1417  1.4123643689418646
83.52  427.2436  1.4123626368188829
83.56  427.33  1.4123608990821748
83.6  427.4013  1.4123591565743958
83.64  427.4575  1.4123574101223881
83.68  427.4988  1.4123556605581518
83.72  427.5256  1.4123539087066215
83.76  427.5382  1.4123521553733929
83.8  427.5368  1.4123504013491952
83.84  427.5217  1.4123486474144549
83.88  427.4932  1.412346894332765
83.92  427.4519  1.412345142849993
83.96  427.398  1.4123433936767706
84.0  427.3319  1.4123416475100523
84.04  427.2541  1.412339905021331
84.08  427.165  1.4123381668505577
84.12  427.0651  1.4123364336112434
84.16  426.9549  1.4123347058845792
84.2  426.8348  1.4123329842192058
84.24  426.7053  1.4123312691365295
84.28  426.5671  1.4123295611251407
84.32  426.4206  1.412327860629987
84.36  426.2664  1.4123261680688335
84.4  426.105  1.4123244838215951
84.44  425.9371  1.4123228082360137
84.48  425.7632  1.4123211416173083
84.52  425.5839  1.4123194842393278
84.56  425.3998  1.4123178363396893
84.6  425.2116  1.412316198120337
84.64  425.0198  1.412314569742933
84.68  424.8251  1.4123129513399717
84.72  424.6282  1.4123113430050265
84.76  424.4296  1.412309744793555
84.8  424.23  1.412308156733905
84.84  424.03  1.412306578817783
84.88  423.8303  1.4123050110061222
84.92  423.6315  1.41230345322479
84.96  423.4343  1.4123019053703845
85.0  423.2392  1.412300367305975
85.04  423.047  1.4122988388717197
85.08  422.8582  1.4122973198707258
85.12  422.6735  1.4122958100844714
85.16  422.4934  1.4122943092635984
85.2  422.3187  1.412292817138179
85.24  422.1498  1.4122913334037475
85.28  421.9874  1.4122898577409928
85.32  421.8321  1.4122883898017442
85.36  421.6844  1.4122869292141225
85.4  421.5449  1.4122854755875183
85.44  421.4141  1.4122840285080542
85.48  421.2926  1.412282587543408
85.52  421.1808  1.4122811522381908
85.56  421.0793  1.412279722123232
85.6  420.9886  1.4122782967061907
85.64  420.9091  1.4122768754760464
85.68  420.8412  1.4122754579074537
85.72  420.7854  1.4122740434603982
85.76  420.7422  1.4122726315752208
85.8  420.7118  1.4122712216721807
85.84  420.6947  1.4122698131646314
85.88  420.6912  1.4122684054447068
85.92  420.7016  1.4122669978917906
85.96  420.7262  1.4122655898717842
86.0  420.7654  1.4122641807363197
86.04  420.8194  1.4122627698173422
86.08  420.8883  1.4122613564353328
86.12  420.9725  1.4122599399029496
86.16  421.0721  1.4122585195102852
86.2  421.1872  1.4122570945375656
86.24  421.318  1.4122556642541062
86.28  421.4647  1.4122542279125851
86.32  421.6272  1.4122527847478485
86.36  421.8057  1.4122513339897147
86.4  422.0002  1.4122498748478065
86.44  422.2107  1.4122484065196788
86.48  422.4371  1.4122469281896266
86.52  422.6795  1.412245439032269
86.56  422.9378  1.4122439382017613
86.6  423.2118  1.4122424248401266
86.64  423.5015  1.4122408980810026
86.68  423.8068  1.4122393570387224
86.72  424.1273  1.412237800811958
86.76  424.4631  1.412236228497646
86.8  424.8137  1.4122346391648732
86.84  425.1791  1.4122330318841414
86.88  425.5589  1.412231405700971
86.92  425.9528  1.412229759655494
86.96  426.3606  1.412228092776598
87.0  426.7818  1.4122264040758072
87.04  427.2162  1.4122246925626702
87.08  427.6634  1.4122229572280591
87.12  428.123  1.4122211970544372
87.16  428.5945  1.4122194110155448
87.2  429.0776  1.412217598081885
87.24  429.5717  1.4122157572091962
87.28  430.0764  1.4122138873557297
87.32  430.5913  1.412211987470873
87.36  431.1157  1.4122100564951756
87.4  431.6493  1.4122080933789756
87.44  432.1914  1.4122060970586057
87.48  432.7415  1.4122040664817697
87.52  433.2991  1.4122020005961426
87.56  433.8635  1.4121998983502488
87.6  434.4343  1.4121977587078056
87.64  435.0108  1.4121955806293098
87.68  435.5923  1.4121933630935273
87.72  436.1784  1.4121911050997304
87.76  436.7683  1.4121888056486898
87.8  437.3615  1.4121864637728208
87.84  437.9573  1.4121840785172173
87.88  438.5551  1.4121816489565087
87.92  439.1542  1.4121791741902139
87.96  439.7541  1.412176653353115
88.0  440.354  1.4121740856027534
88.04  440.9533  1.4121714701458483
88.08  441.5515  1.412168806226059
88.12  442.1478  1.412166093118821
88.16  442.7416  1.4121633301593393
88.2  443.3324  1.412160516729897
88.24  443.9194  1.4121576522545904
88.28  444.502  1.4121547362288722
88.32  445.0797  1.4121517682063027
88.36  445.6518  1.4121487477930905
88.4  446.2178  1.4121456746698349
88.44  446.777  1.4121425485770107
88.48  447.3289  1.4121393693373627
88.52  447.8729  1.4121361368408503
88.56  448.4084  1.4121328510577613
88.6  448.935  1.4121295120425166
88.64  449.4521  1.412126119917108
88.68  449.9592  1.4121226748942828
88.72  450.4558  1.4121191772707489
88.76  450.9415  1.412115627430179
88.8  451.4157  1.4121120258353859
88.84  451.878  1.4121083730523183
88.88  452.3281  1.4121046697312722
88.92  452.7655  1.4121009165977394
88.96  453.1898  1.4120971144762922
89.0  453.6007  1.412093264281414
89.04  453.9978  1.4120893670075099
89.08  454.3809  1.4120854237414342
89.12  454.7496  1.412081435640129
89.16  455.1036  1.412077403954472
89.2  455.4428  1.4120733300180905
89.24  455.7669  1.4120692152232903
89.28  456.0756  1.4120650610446281
89.32  456.3689  1.4120608690387324
89.36  456.6466  1.412056640806653
89.4  456.9085  1.4120523780171903
89.44  457.1545  1.4120480824058144
89.48  457.3847  1.4120437557607397
89.52  457.5988  1.4120393998956722
89.56  457.797  1.4120350166987221
89.6  457.9791  1.4120306080665281
89.64  458.1453  1.4120261759532895
89.68  458.2956  1.4120217223168057
89.72  458.4301  1.412017249141765
89.76  458.5488  1.4120127584241922
89.8  458.6519  1.412008252181966
89.84  458.7396  1.4120037324259365
89.88  458.8121  1.4119992011571587
89.92  458.8695  1.4119946603642037
89.96  458.912  1.4119901120338214
90.0  458.94  1.411985558135189
90.04  458.9536  1.4119810005908453
90.08  458.9533  1.411976441314193
90.12  458.9393  1.411971882154066
90.16  458.9119  1.4119673249325357
90.2  458.8716  1.4119627714296596
90.24  458.8186  1.411958223355129
90.28  458.7535  1.4119536823865244
90.32  458.6766  1.4119491501148331
90.36  458.5884  1.4119446280830448
90.4  458.4894  1.411940117758672
90.44  458.3799  1.4119356205330287
90.48  458.2606  1.4119311377469157
90.52  458.1319  1.4119266706377311
90.56  457.9943  1.4119222203786943
90.6  457.8485  1.4119177880657234
90.64  457.6948  1.4119133746917905
90.68  457.534  1.4119089811991286
90.72  457.3666  1.4119046084152642
90.76  457.1931  1.4119002570925607
90.8  457.0143  1.4118959279089878
90.84  456.8305  1.4118916214310957
90.88  456.6426  1.411887338178567
90.92  456.4511  1.411883078549746
90.96  456.2567  1.4118788428735514
91.0  456.0599  1.4118746313859258
91.04  455.8614  1.4118704442562244
91.08  455.6618  1.4118662815640048
91.12  455.4619  1.4118621433130365
91.16  455.2621  1.411858029408645
91.2  455.0632  1.4118539397080054
91.24  454.8659  1.4118498739732355
91.28  454.6706  1.4118458318853546
91.32  454.4781  1.4118418130815968
91.36  454.289  1.4118378171091441
91.4  454.104  1.4118338434504614
91.44  453.9235  1.4118298915128986
91.48  453.7483  1.4118259606649943
91.52  453.579  1.4118220501908576
91.56  453.416  1.4118181593146442
91.6  453.2601  1.4118142872243706
91.64  453.1118  1.411810433026624
91.68  452.9716  1.411806595781706
91.72  452.8401  1.4118027745039607
91.76  452.7178  1.4117989681506913
91.8  452.6053  1.4117951756336455
91.84  452.5029  1.411791395807735
91.88  452.4113  1.4117876275045147
91.92  452.3309  1.4117838694869655
91.96  452.2621  1.4117801204826157
92.0  452.2053  1.4117763791827873
92.04  452.1611  1.4117726442417142
92.08  452.1296  1.4117689142533625
92.12  452.1115  1.4117651878057178
92.16  452.1069  1.411761463412973
92.2  452.1162  1.411757739580514
92.24  452.1397  1.4117540147700958
92.28  452.1777  1.4117502874091712
92.32  452.2304  1.411746555889025
92.36  452.2982  1.411742818573871
92.4  452.3812  1.4117390737765454
92.44  452.4795  1.4117353197895859
92.48  452.5934  1.4117315548830194
92.52  452.723  1.4117277772796653
92.56  452.8683  1.4117239851749717
92.6  453.0296  1.4117201767458232
92.64  453.2068  1.4117163501141374
92.68  453.4  1.4117125033893896
92.72  453.6093  1.4117086346433845
92.76  453.8344  1.411704741907427
92.8  454.0756  1.4117008232157455
92.84  454.3326  1.411696876533645
92.88  454.6054  1.411692899824295
92.92  454.8938  1.4116888910113685
92.96  455.1978  1.4116848480000193
93.0  455.5172  1.4116807686506605
93.04  455.8517  1.4116766508002376
93.08  456.2012  1.4116724922722694
93.12  456.5654  1.4116682908504288
93.16  456.944  1.4116640443008779
93.2  457.3368  1.411659750370628
93.24  457.7435  1.4116554067732467
93.28  458.1637  1.4116510111996776
93.32  458.5971  1.411646561329793
93.36  459.0433  1.4116420548184496
93.4  459.5019  1.4116374893075248
93.44  459.9725  1.4116328624253653
93.48  460.4546  1.4116281717863643
93.52  460.9479  1.4116234150045033
93.56  461.4518  1.41161858966592
93.6  461.9658  1.4116136933707704
93.64  462.4895  1.4116087237205297
93.68  463.0224  1.4116036783045631
93.72  463.5638  1.4115985547154637
93.76  464.1133  1.4115933505805984
93.8  464.6703  1.4115880635199518
93.84  465.2343  1.411582691178166
93.88  465.8046  1.4115772312120234
93.92  466.3806  1.4115716813247496
93.96  466.9618  1.411566039254509
94.0  467.5475  1.411560302762011
94.04  468.1371  1.4115544696670632
94.08  468.7301  1.411548537837223
94.12  469.3257  1.4115425051754753
94.16  469.9233  1.4115363696765422
94.2  470.5224  1.4115301293990077
94.24  471.1222  1.4115237824530198
94.28  471.7221  1.4115173270598351
94.32  472.3216  1.4115107615231708
94.36  472.9199  1.4115040842168234
94.4  473.5163  1.4114972936474794
94.44  474.1104  1.411490388444511
94.48  474.7014  1.4114833673091673
94.52  475.2887  1.4114762290994327
94.56  475.8717  1.4114689727992562
94.6  476.4498  1.4114615975261318
94.64  477.0224  1.4114541025387901
94.68  477.5889  1.4114464872449863
94.72  478.1486  1.4114387512093511
94.76  478.7011  1.4114308941830918
94.8  479.2458  1.411422916046766
94.84  479.782  1.4114148168605614
94.88  480.3094  1.4114065968948404
94.92  480.8272  1.4113982565469907
94.96  481.3352  1.4113897964620477
95.0  481.8326  1.4113812174008253
95.04  482.3191  1.4113725203859515
95.08  482.7943  1.4113637065902471
95.12  483.2576  1.411354777364548
95.16  483.7086  1.4113457342915303
95.2  484.1471  1.4113365791418364
95.24  484.5724  1.411327313827087
95.28  484.9844  1.4113179405290865
95.32  485.3826  1.4113084615508937
95.36  485.7668  1.4112988794208332
95.4  486.1367  1.4112891968167425
95.44  486.4919  1.4112794165925366
95.48  486.8323  1.411269541805661
95.52  487.1576  1.4112595756370399
95.56  487.4676  1.411249521443706
95.6  487.7621  1.4112393827308147
95.64  488.041  1.4112291631499392
95.68  488.3041  1.4112188664691594
95.72  488.5515  1.4112084965980327
95.76  488.7828  1.4111980575002678
95.8  488.9983  1.411187553330756
95.84  489.1977  1.4111769882338807
95.88  489.3811  1.4111663665091905
95.92  489.5486  1.41115569249309
95.96  489.7002  1.4111449705534316
96.0  489.8359  1.4111342051131357
96.04  489.9559  1.411123400645181
96.08  490.0602  1.4111125616090965
96.12  490.1491  1.411101692503763
96.16  490.2228  1.411090797774281
96.2  490.2814  1.4110798818355836
96.24  490.3251  1.411068949096532
96.28  490.3542  1.4110580039254086
96.32  490.369  1.411047050615394
96.36  490.3698  1.4110360933796806
96.4  490.3568  1.4110251363468858
96.44  490.3305  1.4110141835862495
96.48  490.2912  1.4110032390151788
96.52  490.2392  1.4109923064546095
96.56  490.1751  1.4109813896256742
96.6  490.0991  1.4109704920586223
96.64  490.0118  1.4109596172079069
96.68  489.9136  1.4109487683327018
96.72  489.8049  1.4109379485539855
96.76  489.6864  1.41092716085317
96.8  489.5584  1.4109164079840795
96.84  489.4215  1.4109056925889298
96.88  489.2763  1.4108950171112054
96.92  489.1233  1.4108843837964116
96.96  488.963  1.4108737947217846
97.0  488.7961  1.4108632517972994
97.04  488.6231  1.4108527567102183
97.08  488.4446  1.4108423109840589
97.12  488.2613  1.4108319159522569
97.16  488.0737  1.4108215727326607
97.2  487.8824  1.4108112822864445
97.24  487.6882  1.41080104539271
97.28  487.4915  1.4107908625962815
97.32  487.2932  1.410780734321706
97.36  487.0937  1.4107706607387318
97.4  486.8937  1.4107606419031011
97.44  486.6939  1.4107506776775554
97.48  486.495  1.410740767735622
97.52  486.2974  1.4107309115653637
97.56  486.102  1.4107211085530302
97.6  485.9093  1.4107113578524548
97.64  485.7199  1.4107016584951688
97.68  485.5345  1.410692009366453
97.72  485.3536  1.410682409181873
97.76  485.178  1.4106728565423516
97.8  485.0082  1.4106633498582573
97.84  484.8447  1.410653887429859
97.88  484.6882  1.4106444674487595
97.92  484.5393  1.4106350879479113
97.96  484.3984  1.4106257468289176
98.0  484.2662  1.410616441913968
98.04  484.1431  1.4106071708699428
98.08  484.0298  1.410597931285059
98.12  483.9266  1.4105887205929082
98.16  483.8341  1.4105795361731284
98.2  483.7528  1.410570375275012
98.24  483.6831  1.4105612350417758
98.28  483.6253  1.4105521125342106
98.32  483.58  1.4105430047538148
98.36  483.5476  1.4105339085658861
98.4  483.5283  1.4105248207471413
98.44  483.5226  1.4105157380327493
98.48  483.5308  1.4105066570386726
98.52  483.5532  1.41049757430815
98.56  483.59  1.410488486308111
98.6  483.6416  1.410479389450241
98.64  483.7082  1.4104702800371083
98.68  483.7899  1.4104611543076089
98.72  483.887  1.4104520084574834
98.76  483.9997  1.4104428385846546
98.8  484.128  1.4104336407092062
98.84  484.2721  1.4104244108186568
98.88  484.4321  1.4104151448125652
98.92  484.6081  1.410405838522356
98.96  484.8  1.4103964877058752
99.0  485.0079  1.4103870880930724
99.04  485.2318  1.4103776353296429
99.08  485.4717  1.4103681249970408
99.12  485.7275  1.410358552606952
99.16  485.999  1.4103489136218903
99.2  486.2862  1.4103392034765352
99.24  486.589  1.4103294175201422
99.28  486.9071  1.4103195510374673
99.32  487.2404  1.4103095992976078
99.36  487.5887  1.4102995574960315
99.4  487.9518  1.4102894207768766
99.44  488.3293  1.4102791842286881
99.48  488.721  1.4102688429361612
99.52  489.1266  1.4102583919216296
99.56  489.5457  1.4102478261696103
99.6  489.978  1.4102371406528553
99.64  490.4232  1.410226330301836
99.68  490.8808  1.410215390002368
99.72  491.3505  1.410204314652945
99.76  491.8317  1.4101930991051919
99.8  492.3241  1.4101817382535344
99.84  492.8272  1.4101702269455152
99.88  493.3405  1.4101585600430455
99.92  493.8634  1.4101467324245256
99.96  494.3956  1.4101347390193926
100.0  494.9363  1.410122574715488
100.04  495.4852  1.410110234523346
100.08  496.0417  1.410097713418792
100.12  496.6051  1.4100850064449526
100.16  497.1749  1.410072108752988
100.2  497.7504  1.4100590155417547
100.24  498.3312  1.4100457221338731
100.28  498.9166  1.410032223879004
100.32  499.506  1.4100185162670342
100.36  500.0987  1.4100045949027025
100.4  500.6941  1.409990455552572
100.44  501.2916  1.4099760941197979
100.48  501.8906  1.4099615066550293
100.52  502.4904  1.4099466893678099
100.56  503.0903  1.4099316386777845
100.6  503.6898  1.409916351229283
100.64  504.2882  1.4099008238255062
100.68  504.8848  1.4098850535215668
100.72  505.4791  1.4098690376404284
100.76  506.0704  1.409852773704872
100.8  506.658  1.409836259535061
100.84  507.2414  1.4098194932655215
100.88  507.8199  1.4098024732744618
100.92  508.393  1.4097851982855933
100.96  508.9599  1.4097676672954145
101.0  509.5203  1.4097498797234063
101.04  510.0733  1.4097318352003756
101.08  510.6186  1.4097135338583484
101.12  511.1556  1.4096949760676607
101.16  511.6836  1.4096761625893681
101.2  512.2023  1.4096570946388998
101.24  512.711  1.4096377737057673
101.28  513.2093  1.4096182017604955
101.32  513.6967  1.4095983811194495
101.36  514.1728  1.4095783145047938
101.4  514.6371  1.4095580050036267
101.44  515.0891  1.4095374561281364
101.48  515.5285  1.4095166718252585
101.52  515.955  1.4094956563792134
101.56  516.368  1.4094744144156302
101.6  516.7674  1.4094529510678893
101.64  517.1527  1.4094312717122959
101.68  517.5237  1.4094093821873095
101.72  517.8801  1.4093872886318306
101.76  518.2217  1.4093649975403462
101.8  518.5481  1.4093425157065158
101.84  518.8594  1.4093198503349411
101.88  519.1551  1.40929700875451
101.92  519.4353  1.409273998756884
101.96  519.6997  1.4092508282479983
102.0  519.9483  1.4092275054730066
102.04  520.1809  1.409204038835905
102.08  520.3976  1.4091804370093977
102.12  520.5983  1.4091567087502845
102.16  520.783  1.4091328630086704
102.2  520.9518  1.4091089088598179
102.24  521.1046  1.4090848554344726
102.28  521.2416  1.409060712029076
102.32  521.3628  1.4090364879151183
102.36  521.4684  1.4090121924492487
102.4  521.5586  1.4089878349416871
102.44  521.6334  1.4089634246452662
102.48  521.6932  1.408938970866926
102.52  521.7381  1.408914482713467
102.56  521.7683  1.4088899692645056
102.6  521.7843  1.4088654395018014
102.64  521.7861  1.4088409021161805
102.68  521.7743  1.4088163658048785
102.72  521.749  1.4087918388958003
102.76  521.7107  1.4087673296460774
102.8  521.6598  1.4087428459901286
102.84  521.5965  1.4087183955947327
102.88  521.5215  1.4086939859755052
102.92  521.4351  1.4086696241870496
102.96  521.3377  1.4086453170631577
103.0  521.2299  1.4086210711524165
103.04  521.1121  1.4085968925946604
103.08  520.9848  1.4085727872407954
103.12  520.8487  1.4085487605914242
103.16  520.7041  1.4085248176770981
103.2  520.5517  1.4085009632994199
